"PointID","x","y","Density","Momentum_x","Momentum_y","Energy","Turb_Kin_Energy","Omega"
0, -3.333300000000000e-01, 2.220446049250313e-16, 1.336155977528128e+00, 9.260637212819043e+01, 0.000000000000000e+00, 2.908824497599314e+05, 4.054073998010013e-01, 3.045898559726301e+04
1, -2.932629762990000e-01, 2.220446049250313e-16, 1.336137338238864e+00, 9.260150189923112e+01, 0.000000000000000e+00, 2.908817922964678e+05, 2.375164082446195e-01, 1.891920829748018e+04
2, -2.579638554210000e-01, 2.220446049250313e-16, 1.336155185704693e+00, 9.259897898214035e+01, 0.000000000000000e+00, 2.908820568495797e+05, 1.846906406030310e-01, 1.560780358619089e+04
3, -2.268587402450000e-01, 2.220446049250313e-16, 1.336143793848025e+00, 9.259459861910568e+01, 0.000000000000000e+00, 2.908826232871769e+05, 1.660526951878535e-01, 1.465290477827239e+04
4, -1.994419202700000e-01, 2.220446049250313e-16, 1.336150687847212e+00, 9.258918111235580e+01, 0.000000000000000e+00, 2.908833200550106e+05, 1.586794087214271e-01, 1.437733360800025e+04
5, -1.752676497180000e-01, 2.220446049250313e-16, 1.336151069234715e+00, 9.258375795204462e+01, 0.000000000000000e+00, 2.908842221605497e+05, 1.553816433904915e-01, 1.429827779686781e+04
6, -1.539429005510000e-01, 2.220446049250313e-16, 1.336164661179073e+00, 9.257780914268358e+01, 0.000000000000000e+00, 2.908852250303101e+05, 1.537279351176492e-01, 1.427719432591561e+04
7, -1.351209725690000e-01, 2.220446049250313e-16, 1.336164891792402e+00, 9.256991961967888e+01, 0.000000000000000e+00, 2.908862762355726e+05, 1.528194674023787e-01, 1.427398580741358e+04
8, -1.184958567280000e-01, 2.220446049250313e-16, 1.336172197925164e+00, 9.256110415319904e+01, 0.000000000000000e+00, 2.908873917360745e+05, 1.522805659150472e-01, 1.427583390389774e+04
9, -1.037972600030000e-01, 2.220446049250313e-16, 1.336177622049000e+00, 9.255202745650756e+01, 0.000000000000000e+00, 2.908886381546872e+05, 1.519435966330015e-01, 1.427913464363502e+04
10, -9.078621093630000e-02, 2.220446049250313e-16, 1.336186506635319e+00, 9.254135521971624e+01, 0.000000000000000e+00, 2.908899181391840e+05, 1.517221899410678e-01, 1.428246324662034e+04
11, -7.925117441300000e-02, 2.220446049250313e-16, 1.336192861665388e+00, 9.252786868707204e+01, 0.000000000000000e+00, 2.908911703277674e+05, 1.515715875548756e-01, 1.428552758759452e+04
12, -6.900461249730000e-02, 2.220446049250313e-16, 1.336201645246175e+00, 9.251224134805334e+01, 0.000000000000000e+00, 2.908924478356795e+05, 1.514645354497589e-01, 1.428805238772552e+04
13, -5.987993541990000e-02, 2.220446049250313e-16, 1.336209959864163e+00, 9.250068772702136e+01, 0.000000000000000e+00, 2.908942148598735e+05, 1.513884407898090e-01, 1.429036073108783e+04
14, -5.172879314310000e-02, 2.220446049250313e-16, 1.336219862533246e+00, 9.250291225683738e+01, 0.000000000000000e+00, 2.908971887253067e+05, 1.513438702198578e-01, 1.429321418408047e+04
15, -4.441866346870000e-02, 2.220446049250313e-16, 1.336230372158381e+00, 9.251540929200046e+01, 0.000000000000000e+00, 2.909012125568829e+05, 1.513440131325006e-01, 1.429777133066431e+04
16, -3.783069747710000e-02, 2.220446049250313e-16, 1.336242846900204e+00, 9.248786977156335e+01, 0.000000000000000e+00, 2.909029034483523e+05, 1.513713412335650e-01, 1.430273029995433e+04
17, -3.185778726780000e-02, 2.220446049250313e-16, 1.336256383832557e+00, 9.232341620388992e+01, 0.000000000000000e+00, 2.908955940763532e+05, 1.514015113248703e-01, 1.430333652562037e+04
18, -2.640282458740000e-02, 2.220446049250313e-16, 1.336270963379097e+00, 9.201623669655528e+01, 0.000000000000000e+00, 2.908788124812843e+05, 1.520633489621417e-01, 1.431583788649016e+04
19, -2.137712203200000e-02, 2.220446049250313e-16, 1.336287873222006e+00, 9.196635568340507e+01, 0.000000000000000e+00, 2.908803040998317e+05, 1.534335248270315e-01, 1.434971276675692e+04
20, -1.669897115810000e-02, 2.220446049250313e-16, 1.336313636367707e+00, 9.313515951287302e+01, 0.000000000000000e+00, 2.909688749846653e+05, 1.573184570198664e-01, 1.449097391530528e+04
21, -1.229231405650000e-02, 2.220446049250313e-16, 1.336349481846165e+00, 9.603088243021476e+01, 0.000000000000000e+00, 2.911912982676211e+05, 3.961354596633942e-01, 1.921477545358962e+04
22, -8.085506794949999e-03, 2.220446049250313e-16, 1.336437148205434e+00, 9.721481838831689e+01, 0.000000000000000e+00, 2.913162122562780e+05, 2.493056564884097e+00, 3.482392064790140e+04
23, -4.010154622500000e-03, 2.220446049250313e-16, 1.336675438170954e+00, 8.300837184493140e+01, 0.000000000000000e+00, 2.904241287838354e+05, 1.502035528357380e+01, 7.963997588032256e+04
24, 0.000000000000000e+00, 2.220446049250313e-16, 1.324402539666063e+00, 0.000000000000000e+00, 0.000000000000000e+00, 2.877385790670220e+05, 1.000000000000000e-10, 2.794054912904657e+09
25, 4.011887597850000e-03, 2.220446049250313e-16, 1.325502670907398e+00, 0.000000000000000e+00, 0.000000000000000e+00, 2.876547431289158e+05, 1.000000000000000e-10, 2.789334017792249e+09
26, 8.056205200680001e-03, 2.220446049250313e-16, 1.326347469890658e+00, 0.000000000000000e+00, 0.000000000000000e+00, 2.876827868533181e+05, 1.000000000000000e-10, 2.786403074938792e+09
27, 1.213422760060000e-02, 2.220446049250313e-16, 1.326629448706696e+00, 0.000000000000000e+00, 0.000000000000000e+00, 2.876800762233088e+05, 1.000000000000000e-10, 2.785336159012798e+09
28, 1.624726554020000e-02, 2.220446049250313e-16, 1.326720152558877e+00, 0.000000000000000e+00, 0.000000000000000e+00, 2.876796672957829e+05, 1.000000000000000e-10, 2.784996534160777e+09
29, 2.039666755470000e-02, 2.220446049250313e-16, 1.326746717408787e+00, 0.000000000000000e+00, 0.000000000000000e+00, 2.876779595907181e+05, 1.000000000000000e-10, 2.784885278565978e+09
30, 2.458382190520000e-02, 2.220446049250313e-16, 1.326751651370877e+00, 0.000000000000000e+00, 0.000000000000000e+00, 2.876764143976074e+05, 1.000000000000000e-10, 2.784855490188786e+09
31, 2.881015861120000e-02, 2.220446049250313e-16, 1.326749963380232e+00, 0.000000000000000e+00, 0.000000000000000e+00, 2.876750079254954e+05, 1.000000000000000e-10, 2.784851301665565e+09
32, 3.307715158840000e-02, 2.220446049250313e-16, 1.326744848370259e+00, 0.000000000000000e+00, 0.000000000000000e+00, 2.876737694692105e+05, 1.000000000000000e-10, 2.784861076670601e+09
33, 3.738632089750000e-02, 2.220446049250313e-16, 1.326738875338619e+00, 0.000000000000000e+00, 0.000000000000000e+00, 2.876726573489077e+05, 1.000000000000000e-10, 2.784874974052014e+09
34, 4.173923511390000e-02, 2.220446049250313e-16, 1.326731697187828e+00, 0.000000000000000e+00, 0.000000000000000e+00, 2.876716337769548e+05, 1.000000000000000e-10, 2.784894000966281e+09
35, 4.613751382460000e-02, 2.220446049250313e-16, 1.326723959439474e+00, 0.000000000000000e+00, 0.000000000000000e+00, 2.876706824148577e+05, 1.000000000000000e-10, 2.784915641048338e+09
36, 5.058283026210000e-02, 2.220446049250313e-16, 1.326716035040638e+00, 0.000000000000000e+00, 0.000000000000000e+00, 2.876697899940624e+05, 1.000000000000000e-10, 2.784938412000943e+09
37, 5.507691408390000e-02, 2.220446049250313e-16, 1.326708198462470e+00, 0.000000000000000e+00, 0.000000000000000e+00, 2.876689482940947e+05, 1.000000000000000e-10, 2.784961234356994e+09
38, 5.962155430870000e-02, 2.220446049250313e-16, 1.326700472456193e+00, 0.000000000000000e+00, 0.000000000000000e+00, 2.876681555902759e+05, 1.000000000000000e-10, 2.784984010878793e+09
39, 6.421860241959999e-02, 2.220446049250313e-16, 1.326692980718849e+00, 0.000000000000000e+00, 0.000000000000000e+00, 2.876674074895865e+05, 1.000000000000000e-10, 2.785006249925873e+09
40, 6.886997564640000e-02, 2.220446049250313e-16, 1.326685841479394e+00, 0.000000000000000e+00, 0.000000000000000e+00, 2.876666970010556e+05, 1.000000000000000e-10, 2.785027460815660e+09
41, 7.357766043930000e-02, 2.220446049250313e-16, 1.326679169639136e+00, 0.000000000000000e+00, 0.000000000000000e+00, 2.876660244290583e+05, 1.000000000000000e-10, 2.785047219434825e+09
42, 7.834371614890000e-02, 2.220446049250313e-16, 1.326672603248504e+00, 0.000000000000000e+00, 0.000000000000000e+00, 2.876653801401315e+05, 1.000000000000000e-10, 2.785066797172500e+09
43, 8.317027892560000e-02, 2.220446049250313e-16, 1.326666416859462e+00, 0.000000000000000e+00, 0.000000000000000e+00, 2.876647690720677e+05, 1.000000000000000e-10, 2.785085211948684e+09
44, 8.805956585650000e-02, 2.220446049250313e-16, 1.326660400986012e+00, 0.000000000000000e+00, 0.000000000000000e+00, 2.876641837122036e+05, 1.000000000000000e-10, 2.785103185250047e+09
45, 9.301387935570000e-02, 2.220446049250313e-16, 1.326654870327805e+00, 0.000000000000000e+00, 0.000000000000000e+00, 2.876636132939910e+05, 1.000000000000000e-10, 2.785119469247025e+09
46, 9.803561182770000e-02, 2.220446049250313e-16, 1.326649249194004e+00, 0.000000000000000e+00, 0.000000000000000e+00, 2.876630717632772e+05, 1.000000000000000e-10, 2.785136303846280e+09
47, 1.031272506240000e-01, 2.220446049250313e-16, 1.326644211801320e+00, 0.000000000000000e+00, 0.000000000000000e+00, 2.876625465284115e+05, 1.000000000000000e-10, 2.785151093527218e+09
48, 1.082913833170000e-01, 2.220446049250313e-16, 1.326638931759987e+00, 0.000000000000000e+00, 0.000000000000000e+00, 2.876620356233819e+05, 1.000000000000000e-10, 2.785166890301841e+09
49, 1.135307033110000e-01, 2.220446049250313e-16, 1.326634383503049e+00, 0.000000000000000e+00, 0.000000000000000e+00, 2.876615492714450e+05, 1.000000000000000e-10, 2.785180154084484e+09
50, 1.188480158220000e-01, 2.220446049250313e-16, 1.326629590203866e+00, 0.000000000000000e+00, 0.000000000000000e+00, 2.876610735132743e+05, 1.000000000000000e-10, 2.785194406065762e+09
51, 1.242462442510000e-01, 2.220446049250313e-16, 1.326625319861829e+00, 0.000000000000000e+00, 0.000000000000000e+00, 2.876606061113626e+05, 1.000000000000000e-10, 2.785206779572073e+09
52, 1.297284369870000e-01, 2.220446049250313e-16, 1.326620725413126e+00, 0.000000000000000e+00, 0.000000000000000e+00, 2.876601621380174e+05, 1.000000000000000e-10, 2.785220530080969e+09
53, 1.352977746630000e-01, 2.220446049250313e-16, 1.326616923307759e+00, 0.000000000000000e+00, 0.000000000000000e+00, 2.876597287089500e+05, 1.000000000000000e-10, 2.785231418623706e+09
54, 1.409575779210000e-01, 2.220446049250313e-16, 1.326612471681685e+00, 0.000000000000000e+00, 0.000000000000000e+00, 2.876592952763703e+05, 1.000000000000000e-10, 2.785244717659727e+09
55, 1.467113157020000e-01, 2.220446049250313e-16, 1.326609001816839e+00, 0.000000000000000e+00, 0.000000000000000e+00, 2.876588775842321e+05, 1.000000000000000e-10, 2.785254490345012e+09
56, 1.525626141330000e-01, 2.220446049250313e-16, 1.326604635181129e+00, 0.000000000000000e+00, 0.000000000000000e+00, 2.876584745960683e+05, 1.000000000000000e-10, 2.785267700437711e+09
57, 1.585152660350000e-01, 2.220446049250313e-16, 1.326601350432895e+00, 0.000000000000000e+00, 0.000000000000000e+00, 2.876580752456330e+05, 1.000000000000000e-10, 2.785276922589560e+09
58, 1.645732411200000e-01, 2.220446049250313e-16, 1.326597418767283e+00, 0.000000000000000e+00, 0.000000000000000e+00, 2.876576781943905e+05, 1.000000000000000e-10, 2.785288562730441e+09
59, 1.707406969350000e-01, 2.220446049250313e-16, 1.326594355774079e+00, 0.000000000000000e+00, 0.000000000000000e+00, 2.876572955727146e+05, 1.000000000000000e-10, 2.785297086359648e+09
60, 1.770219906140000e-01, 2.220446049250313e-16, 1.326590366546677e+00, 0.000000000000000e+00, 0.000000000000000e+00, 2.876569242246302e+05, 1.000000000000000e-10, 2.785309131344261e+09
61, 1.834216915030000e-01, 2.220446049250313e-16, 1.326587600087084e+00, 0.000000000000000e+00, 0.000000000000000e+00, 2.876565519349886e+05, 1.000000000000000e-10, 2.785316631363438e+09
62, 1.899445947530000e-01, 2.220446049250313e-16, 1.326583683223432e+00, 0.000000000000000e+00, 0.000000000000000e+00, 2.876561814757624e+05, 1.000000000000000e-10, 2.785328414513637e+09
63, 1.965957359540000e-01, 2.220446049250313e-16, 1.326581239491133e+00, 0.000000000000000e+00, 0.000000000000000e+00, 2.876558233370054e+05, 1.000000000000000e-10, 2.785334822063089e+09
64, 2.033804069020000e-01, 2.220446049250313e-16, 1.326577187327487e+00, 0.000000000000000e+00, 0.000000000000000e+00, 2.876554760092461e+05, 1.000000000000000e-10, 2.785347279422686e+09
65, 2.103041726230000e-01, 2.220446049250313e-16, 1.326574734404295e+00, 0.000000000000000e+00, 0.000000000000000e+00, 2.876551267276344e+05, 1.000000000000000e-10, 2.785353786995316e+09
66, 2.173728897500000e-01, 2.220446049250313e-16, 1.326571192444482e+00, 0.000000000000000e+00, 0.000000000000000e+00, 2.876547760254711e+05, 1.000000000000000e-10, 2.785364325862538e+09
67, 2.245927263960000e-01, 2.220446049250313e-16, 1.326569165031212e+00, 0.000000000000000e+00, 0.000000000000000e+00, 2.876544339646096e+05, 1.000000000000000e-10, 2.785369307943889e+09
68, 2.319701836540000e-01, 2.220446049250313e-16, 1.326565013895830e+00, 0.000000000000000e+00, 0.000000000000000e+00, 2.876541050178846e+05, 1.000000000000000e-10, 2.785382269524938e+09
69, 2.395121189030000e-01, 2.220446049250313e-16, 1.326563293941843e+00, 0.000000000000000e+00, 0.000000000000000e+00, 2.876537767827456e+05, 1.000000000000000e-10, 2.785386213316309e+09
70, 2.472257710730000e-01, 2.220446049250313e-16, 1.326559297944176e+00, 0.000000000000000e+00, 0.000000000000000e+00, 2.876534417352995e+05, 1.000000000000000e-10, 2.785398553903802e+09
71, 2.551187880890000e-01, 2.220446049250313e-16, 1.326557678698082e+00, 0.000000000000000e+00, 0.000000000000000e+00, 2.876531116130069e+05, 1.000000000000000e-10, 2.785402109939072e+09
72, 2.631992566980000e-01, 2.220446049250313e-16, 1.326553539094367e+00, 0.000000000000000e+00, 0.000000000000000e+00, 2.876527937284887e+05, 1.000000000000000e-10, 2.785415111214569e+09
73, 2.714757349350000e-01, 2.220446049250313e-16, 1.326551975338669e+00, 0.000000000000000e+00, 0.000000000000000e+00, 2.876524809145110e+05, 1.000000000000000e-10, 2.785418589989121e+09
74, 2.799572875080000e-01, 2.220446049250313e-16, 1.326548311843339e+00, 0.000000000000000e+00, 0.000000000000000e+00, 2.876521608956377e+05, 1.000000000000000e-10, 2.785429808445186e+09
75, 2.886535243940000e-01, 2.220446049250313e-16, 1.326546799426681e+00, 0.000000000000000e+00, 0.000000000000000e+00, 2.876518404517305e+05, 1.000000000000000e-10, 2.785433040024148e+09
76, 2.975746430190000e-01, 2.220446049250313e-16, 1.326542815910786e+00, 0.000000000000000e+00, 0.000000000000000e+00, 2.876515264197175e+05, 1.000000000000000e-10, 2.785445490860998e+09
77, 3.067314743950000e-01, 2.220446049250313e-16, 1.326541438289236e+00, 0.000000000000000e+00, 0.000000000000000e+00, 2.876512236869753e+05, 1.000000000000000e-10, 2.785448353793317e+09
78, 3.161355336610000e-01, 2.220446049250313e-16, 1.326537755270036e+00, 0.000000000000000e+00, 0.000000000000000e+00, 2.876509201943424e+05, 1.000000000000000e-10, 2.785459767768092e+09
79, 3.257990755320000e-01, 2.220446049250313e-16, 1.326536552266199e+00, 0.000000000000000e+00, 0.000000000000000e+00, 2.876506082609413e+05, 1.000000000000000e-10, 2.785461914229512e+09
80, 3.357351552200000e-01, 2.220446049250313e-16, 1.326532363886756e+00, 0.000000000000000e+00, 0.000000000000000e+00, 2.876502990468220e+05, 1.000000000000000e-10, 2.785475161485451e+09
81, 3.459576954530000e-01, 2.220446049250313e-16, 1.326531196507389e+00, 0.000000000000000e+00, 0.000000000000000e+00, 2.876499984318418e+05, 1.000000000000000e-10, 2.785477259877664e+09
82, 3.564815603450000e-01, 2.220446049250313e-16, 1.326527607146337e+00, 0.000000000000000e+00, 0.000000000000000e+00, 2.876497038262886e+05, 1.000000000000000e-10, 2.785488392494900e+09
83, 3.673226369200000e-01, 2.220446049250313e-16, 1.326526622116535e+00, 0.000000000000000e+00, 0.000000000000000e+00, 2.876494035027698e+05, 1.000000000000000e-10, 2.785489816253826e+09
84, 3.784979252510000e-01, 2.220446049250313e-16, 1.326522369965363e+00, 0.000000000000000e+00, 0.000000000000000e+00, 2.876490987420857e+05, 1.000000000000000e-10, 2.785503333549759e+09
85, 3.900256382880000e-01, 2.220446049250313e-16, 1.326521512826716e+00, 0.000000000000000e+00, 0.000000000000000e+00, 2.876487975458312e+05, 1.000000000000000e-10, 2.785504276173455e+09
86, 4.019253126140000e-01, 2.220446049250313e-16, 1.326517632278128e+00, 0.000000000000000e+00, 0.000000000000000e+00, 2.876485063917922e+05, 1.000000000000000e-10, 2.785516515447503e+09
87, 4.142179315450000e-01, 2.220446049250313e-16, 1.326517001857123e+00, 0.000000000000000e+00, 0.000000000000000e+00, 2.876482163469341e+05, 1.000000000000000e-10, 2.785516699431516e+09
88, 4.269260622260000e-01, 2.220446049250313e-16, 1.326512375984088e+00, 0.000000000000000e+00, 0.000000000000000e+00, 2.876479170727572e+05, 1.000000000000000e-10, 2.785531644907025e+09
89, 4.400740085990000e-01, 2.220446049250313e-16, 1.326511857661925e+00, 0.000000000000000e+00, 0.000000000000000e+00, 2.876476175229721e+05, 1.000000000000000e-10, 2.785531342160632e+09
90, 4.536879824320000e-01, 2.220446049250313e-16, 1.326507873462538e+00, 0.000000000000000e+00, 0.000000000000000e+00, 2.876473235410313e+05, 1.000000000000000e-10, 2.785543945355294e+09
91, 4.677962949600000e-01, 2.220446049250313e-16, 1.326507507289689e+00, 0.000000000000000e+00, 0.000000000000000e+00, 2.876470369419668e+05, 1.000000000000000e-10, 2.785543174130724e+09
92, 4.824295720830000e-01, 2.220446049250313e-16, 1.326502699758378e+00, 0.000000000000000e+00, 0.000000000000000e+00, 2.876467469543545e+05, 1.000000000000000e-10, 2.785558863171257e+09
93, 4.976209965680000e-01, 2.220446049250313e-16, 1.326502666621906e+00, 0.000000000000000e+00, 0.000000000000000e+00, 2.876464505241731e+05, 1.000000000000000e-10, 2.785556782722684e+09
94, 5.134065813120000e-01, 2.220446049250313e-16, 1.326498210227990e+00, 0.000000000000000e+00, 0.000000000000000e+00, 2.876461572267208e+05, 1.000000000000000e-10, 2.785571143925251e+09
95, 5.298254783930000e-01, 2.220446049250313e-16, 1.326498135642938e+00, 0.000000000000000e+00, 0.000000000000000e+00, 2.876458732385881e+05, 1.000000000000000e-10, 2.785569309774010e+09
96, 5.469203295140000e-01, 2.220446049250313e-16, 1.326492822151804e+00, 0.000000000000000e+00, 0.000000000000000e+00, 2.876455899636397e+05, 1.000000000000000e-10, 2.785586927036692e+09
97, 5.647376644470000e-01, 2.220446049250313e-16, 1.326493280855691e+00, 0.000000000000000e+00, 0.000000000000000e+00, 2.876452984184294e+05, 1.000000000000000e-10, 2.785583057192791e+09
98, 5.833283553420000e-01, 2.220446049250313e-16, 1.326488672835864e+00, 0.000000000000000e+00, 0.000000000000000e+00, 2.876450076989614e+05, 1.000000000000000e-10, 2.785598000620410e+09
99, 6.027481362320000e-01, 2.220446049250313e-16, 1.326488877806302e+00, 0.000000000000000e+00, 0.000000000000000e+00, 2.876447246299937e+05, 1.000000000000000e-10, 2.785595135622852e+09
100, 6.230581989500000e-01, 2.220446049250313e-16, 1.326483279214364e+00, 0.000000000000000e+00, 0.000000000000000e+00, 2.876444451225255e+05, 1.000000000000000e-10, 2.785613839457454e+09
101, 6.443258788700000e-01, 2.220446049250313e-16, 1.326484390170842e+00, 0.000000000000000e+00, 0.000000000000000e+00, 2.876441599816380e+05, 1.000000000000000e-10, 2.785607596043505e+09
102, 6.666254466970000e-01, 2.220446049250313e-16, 1.326479111516163e+00, 0.000000000000000e+00, 0.000000000000000e+00, 2.876438736787046e+05, 1.000000000000000e-10, 2.785625061912127e+09
103, 6.900390259370000e-01, 2.220446049250313e-16, 1.326479393782810e+00, 0.000000000000000e+00, 0.000000000000000e+00, 2.876435953111924e+05, 1.000000000000000e-10, 2.785621944874869e+09
104, 7.146576599530000e-01, 2.220446049250313e-16, 1.326473110129581e+00, 0.000000000000000e+00, 0.000000000000000e+00, 2.876433213239145e+05, 1.000000000000000e-10, 2.785643233041212e+09
105, 7.405825578610000e-01, 2.220446049250313e-16, 1.326475115264093e+00, 0.000000000000000e+00, 0.000000000000000e+00, 2.876430431836045e+05, 1.000000000000000e-10, 2.785633722377834e+09
